ecg_signal
nal
0.0,0.024835707650561634
0.01001001001001001,0.055940074985922704
0.02002002002002002,0.15784245708533068
0.03003003003003003,0.2637181461962384
0.04004004004004004,0.23722588573072487
0.050050050050050046,0.2976092135414099
0.06006006006006006,0.4474360355856195
0.07007007007007007,0.4645493488300808
0.08008008008008008,0.45872081450530006
0.09009009009009009,0.5634326454166806
0.10010010010010009,0.5651230805601819
0.11011011011011011,0.6146704230745991
0.12012012012012012,0.6971952040620826
0.13013013013013014,0.6338640788892986
0.14014014014014015,0.6848283210730732
0.15015015015015015,0.7814567868786955
0.16016016016016016,0.7942251529390966
0.17017017017017017,0.8925336418629172
0.18018018018018017,0.8599072958065359
0.19019019019019018,0.8596005457618396
0.20020020020020018,1.0247269131292545
0.21021021021021022,0.9576219682118229
0.22022022022022023,0.985921997157024
0.23023023023023023,0.9210575583441407
0.24024024024024024,0.9709012358118873
0.2502502502502503,1.0055448933140907
0.2602602602602603,0.9403730361571281
0.2702702702702703,1.0106853361761603
0.2802802802802803,0.9519238048015666
0.2902902902902903,0.9535432654124552
0.3003003003003003,0.9203864266886418
0.3103103103103103,1.0216708821798097
0.3203203203203203,0.9032934222251193
0.3303303303303303,0.8224193542300181
0.34034034034034033,0.8843074179913819
0.35035035035035034,0.746678951575256
0.36036036036036034,0.7795111863245549
0.37037037037037035,0.6293901353790602
0.38038038038038036,0.6163936147182676
0.39039039039039036,0.6453751476378405
0.40040040040040037,0.6226714065416101
0.41041041041041043,0.5422161744616206
0.42042042042042044,0.47365474816939784
0.43043043043043044,0.4082754712770701
0.44044044044044045,0.2916240123068477
0.45045045045045046,0.27033180918704797
0.46046046046046046,0.2228546472058612
0.47047047047047047,0.23733291811443832
0.4804804804804805,0.1395184388568804
0.4904904904904905,-0.028437542884926795
0.5005005005005005,0.013059466262003307
0.5105105105105106,-0.0852456076474365
0.5205205205205206,-0.1624233952971669
0.5305305305305306,-0.16007083059102112
0.5405405405405406,-0.20042808526032768
0.5505505505505506,-0.26574103827567963
0.5605605605605606,-0.41335790996870025
0.5705705705705706,-0.444480972854887
0.5805805805805806,-0.4683839651473094
0.5905905905905906,-0.4901789660040984
0.6006006006006006,-0.6147927468982225
0.6106106106106106,-0.6496583755062165
0.6206206206206206,-0.7427012373294116
0.6306306306306306,-0.791485657305712
0.6406406406406406,-0.7324465022690076
0.6506506506506506,-0.7436011850343248
0.6606606606606606,-0.8501453964090772
0.6706706706706707,-0.8281523336881671
0.6806806806806807,-0.8885579615245074
0.6906906906906907,-0.96362127719011
0.7007007007007007,-0.9343380026090305
0.7107107107107107,-0.8927822033343892
0.7207207207207207,-0.9849170197512017
0.7307307307307307,-0.9144475040928198
0.7407407407407407,-1.1292954134757556
0.7507507507507507,-0.9588937492569528
0.7607607607607607,-0.9933628357843529
0.7707707707707707,-1.006446461120678
0.7807807807807807,-0.9767681419267846
0.7907907907907907,-1.0667139941273351
0.8008008008008007,-0.9604732347466892
0.8108108108108109,-0.910033398720922
0.8208208208208209,-0.8287244254319579
0.8308308308308309,-0.8996933808264108
0.8408408408408409,-0.8819099774447098
0.8508508508508509,-0.8309509691368959
0.8608608608608609,-0.7212840889704953
0.8708708708708709,-0.708774443277413
0.8808808808808809,-0.7069900015436044
0.8908908908908909,-0.6074376042711538
0.9009009009009009,-0.5783425197388711
0.9109109109109109,-0.4825533506026759
0.9209209209209209,-0.5117777041402956
0.9309309309309309,-0.43686262059910275
0.9409409409409409,-0.3822266214382752
0.950950950950951,-0.3765046958812324
0.960960960960961,-0.2280311715253586
0.970970970970971,-0.1683323722636572
0.980980980980981,-0.11896013590405033
0.990990990990991,-0.06830440585255007
1.001001001001001,-0.6650348354818605
1.011011011011011,0.04809677845651728
1.021021021021021,0.11455956300928548
1.031031031031031,0.1536268877758167
1.0410410410410411,0.24695579081701052
1.0510510510510511,0.3354934814162296
1.0610610610610611,0.4686242949845453
1.0710710710710711,0.4405877436548896
1.0810810810810811,0.5005724633497728
1.0910910910910911,0.5378801757598813
1.1011011011011012,-0.7908643193311995
1.1111111111111112,0.6414619159140783
1.1211211211211212,0.6926765994753135
1.1311311311311312,0.8569774309009921
1.1411411411411412,0.7654456806405454
1.1511511511511512,0.8283245523404138
1.1611611611611612,0.8464791114275401
1.1711711711711712,0.8213940939354524
1.1811811811811812,0.9651032006052972
1.1911911911911912,0.970102289114046
1.2012012012012012,0.2728604990872734
1.2112112112112112,0.9249783177800601
1.2212212212212212,1.053835841726415
1.2312312312312312,0.9229620360007535
1.2412412412412412,1.027828926560536
1.2512512512512513,1.1094918771582458
1.2612612612612613,0.9479709803379652
1.2712712712712713,0.962767060188881
1.2812812812812813,0.985729485474422
1.2912912912912913,0.9413597948522318
1.3013013013013013,0.4129514529738023
1.3113113113113113,0.9301400541455868
1.3213213213213213,0.8481458598596396
1.3313313313313313,0.8959258195512453
1.3413413413413413,0.7938108887468502
1.3513513513513513,0.8814938506178179
1.3613613613613613,0.7258701328410783
1.3713713713713713,0.7069401082512266
1.3813813813813813,0.7188701966831504
1.3913913913913913,0.5691203892208596
1.4014014014014013,-0.9368277103487159
1.4114114114114114,0.5936753264601736
1.4214214214214214,0.3935340608623822
1.4314314314314314,0.42685590513308214
1.4414414414414414,0.3726828693569581
1.4514514514514514,0.33942202120061665
1.4614614614614614,0.17793784795383202
1.4714714714714714,0.1122688405037635
1.4814814814814814,0.14218999240607594
1.4914914914914914,0.06828430765471702
1.5015015015015014,0.8724244924873796
1.5115115115115114,-0.05494350144573723
1.5215215215215214,-0.16881321608550834
1.5315315315315314,-0.1852122566096536
1.5415415415415414,-0.24340594576391505
1.5515515515515514,-0.3539912857936264
1.5615615615615615,-0.2839405387455303
1.5715715715715715,-0.41100143510880505
1.5815815815815815,-0.5500031027765522
1.5915915915915915,-0.5114156841998873
1.6016016016016015,-0.8960574326970552
1.6116116116116117,-0.6058392057515715
1.6216216216216217,-0.6340090900271758
1.6316316316316317,-0.7769821834016891
1.6416416416416417,-0.728878193020073
1.6516516516516517,-0.7944340951394371
1.6616616616616617,-0.8087731131909618
1.6716716716716717,-0.7864786629771098
1.6816816816816818,-0.9215447836140316
1.6916916916916918,-0.9713235718287205
1.7017017017017018,0.08259267060214093
1.7117117117117118,-1.0119922665186485
1.7217217217217218,-0.9881118919040738
1.7317317317317318,-0.9763620719769782
1.7417417417417418,-0.9848195711099557
1.7517517517517518,-0.9585802657484926
1.7617617617617618,-0.9966204447789374
1.7717717717717718,-0.9179812947115658
1.7817817817817818,-0.9933607963840746
1.7917917917917918,-0.8297135899858739
1.8018018018018018,0.41812103890183283
1.8118118118118118,-0.9683834967424925
1.8218218218218218,-0.9534386754263737
1.8318318318318318,-0.8465802794029681
1.8418418418418419,-0.8492437379715198
1.8518518518518519,-0.7664231680504395
1.8618618618618619,-0.7393419531428501
1.8718718718718719,-0.7245086645574297
1.8818818818818819,-0.7182196592660999
1.8918918918918919,-0.7039623585299356
1.901901901901902,0.7419382474921712
1.911911911911912,-0.4828256129151478
1.921921921921922,-0.460432021876508
1.931931931931932,-0.4770517200410063
1.941941941941942,-0.3480936421216737
1.951951951951952,-0.2780639676807311
1.961961961961962,-0.28092408210173647
1.971971971971972,-0.16751018795459385
1.981981981981982,-0.11005843550677359
1.991991991991992,-0.10744308525489756
2.002002002002002,0.030467985856155552
2.012012012012012,0.10344129090081419
2.022022022022022,0.19207990013141882
2.032032032032032,0.25259728782654994
2.042042042042042,0.19221304201423436
2.052052052052052,0.27436209168838877
2.062062062062062,0.4058915614840297
2.0720720720720722,0.4632123080025152
2.0820820820820822,0.5189284462147776
2.0920920920920922,0.7395154500263633
2.1021021021021022,0.6269636119255855
2.1121121121121122,0.7043711636464246
2.1221221221221223,0.7419058943153825
2.1321321321321323,0.7706430941976291
2.1421421421421423,0.7632591233514745
2.1521521521521523,0.8548394982175684
2.1621621621621623,0.8128878770064327
2.1721721721721723,0.8709589823876194
2.1821821821821823,0.8863115262005801
2.1921921921921923,0.9388523636364671
2.2022022022022023,1.0709740859319625
2.2122122122122123,0.8785829498226465
2.2222222222222223,1.0191207625309338
2.2322322322322323,0.9131391344459415
2.2422422422422423,0.9752156809377975
2.2522522522522523,1.0543474016151173
2.2622622622622623,1.0002474207334633
2.2722722722722724,0.9363370145947331
2.2822822822822824,0.9437341139181183
2.2922922922922924,0.998880856141473
2.3023023023023024,0.9099686581489956
2.3123123123123124,0.9351531090564075
2.3223223223223224,0.9007967481150579
2.3323323323323324,0.8365729742217078
2.3423423423423424,0.9435480134320431
2.3523523523523524,0.831937273769933
2.3623623623623624,0.6597101963287874
2.3723723723723724,0.7280068406070095
2.3823823823823824,0.640469603648447
2.3923923923923924,0.6683918435916172
2.4024024024024024,0.5358808158482546
2.4124124124124124,0.5172308961424582
2.4224224224224224,0.4936099002816836
2.4324324324324325,0.45518900795249856
2.4424424424424425,0.29379829877355085
2.4524524524524525,0.2776007935272349
2.4624624624624625,0.2099274304062046
2.4724724724724725,0.1394330211354846
2.4824824824824825,0.1981164235565555
2.4924924924924925,0.06740265490035358
2.5025025025025025,-0.0787672367737919
2.5125125125125125,-0.03264437421292998
2.5225225225225225,-0.034933522074287376
2.5325325325325325,-0.1513641889992025
2.5425425425425425,-0.3400993676143061
2.5525525525525525,-0.3484414991276814
2.5625625625625625,-0.31970101514383503
2.5725725725725725,-0.4757320862155573
2.5825825825825826,-0.4737183472770774
2.5925925925925926,-0.5107772753993389
2.6026026026026026,-0.6472821577420272
2.6126126126126126,-0.6529621908567347
2.6226226226226226,-0.858529245052674
2.6326326326326326,-0.7914110787686571
2.6426426426426426,-0.793618875215575
2.6526526526526526,-0.8810900134640703
2.6626626626626626,-0.7715531679968111
2.6726726726726726,-0.9557798519068095
2.6826826826826826,-0.9338772486498819
2.6926926926926926,-0.9293342766895069
2.7027027027027026,-0.8841030702859449
2.7127127127127126,-1.044474162262132
2.7227227227227226,-0.9271907728598685
2.7327327327327327,-0.9936087044389598
2.7427427427427427,-1.0480359923112248
2.7527527527527527,-0.9767452532451371
2.7627627627627627,-0.9868334553783609
2.7727727727727727,-1.0197915595817233
2.7827827827827827,-0.9753708531643608
2.7927927927927927,-0.9833360266592388
2.8028028028028027,-0.9397915053313021
2.8128128128128127,-0.8900190654682609
2.8228228228228227,-0.8178325351350472
2.8328328328328327,-0.9294842626089443
2.8428428428428427,-0.7279710795150045
2.8528528528528527,-0.8959559286505314
2.8628628628628627,-0.7665125462198682
2.8728728728728727,-0.6870780631585566
2.8828828828828827,-0.657181625954153
2.8928928928928928,-0.6544491439292478
2.9029029029029028,-0.5833383671598846
2.9129129129129128,-0.5449347587145212
2.9229229229229228,-0.4950479696411679
2.932932932932933,-0.3665535370896976
2.942942942942943,-0.3330192765530807
2.952952952952953,-0.3259644430385821
2.962962962962963,-0.18563587697077927
2.972972972972973,-0.1536358442780197
2.982982982982983,-0.06607435942941148
2.992992992992993,-0.012530659926204647
3.003003003003003,-0.022582445761639584
3.013013013013013,0.053663049853355654
3.023023023023023,0.18151861132411945
3.033033033033033,0.23658422468336443
3.043043043043043,0.2661175364363131
3.053053053053053,0.33306941002321044
3.063063063063063,0.4498328037847469
3.073073073073073,0.41359129120233207
3.083083083083083,0.5259925402994913
3.093093093093093,0.5420240137313739
3.103103103103103,0.5925621789020641
3.113113113113113,0.7073113791211499
3.123123123123123,0.7399898798017663
3.133133133133133,0.7829780235456392
3.143143143143143,0.8482245665661781
3.153153153153153,0.8215527671887243
3.163163163163163,0.8889075398716733
3.173173173173173,0.870223570566856
3.183183183183183,0.929369644797405
3.193193193193193,0.9304675465490526
3.203203203203203,0.9619326542479061
3.2132132132132134,1.0031641320278488
3.2232232232232234,0.9449693892857224
3.2332332332332334,1.0990753195395506
3.2432432432432434,0.9487980971296965
3.2532532532532534,0.9390816636245398
3.2632632632632634,1.05443514662534
3.2732732732732734,1.02891052435164
3.2832832832832834,1.009418925985816
3.2932932932932935,0.9946474663571263
3.3033033033033035,0.9438260667384836
3.3133133133133135,0.8770491711109337
3.3233233233233235,0.8995299515949418
3.3333333333333335,0.8321673182088328
3.3433433433433435,0.8816424203116605
3.3533533533533535,0.7891009904298214
3.3633633633633635,0.7155968921653674
3.3733733733733735,0.6982273443443722
3.3833833833833835,0.6895434464581212
3.3933933933933935,0.5926657672030449
3.4034034034034035,0.5292409707995793
3.4134134134134135,0.529780921036473
3.4234234234234235,0.4750426515227336
3.4334334334334335,0.3808148317859172
3.4434434434434436,0.3243715974133686
3.4534534534534536,0.299911687140104
3.4634634634634636,0.155150547801216
3.4734734734734736,0.09552729784988488
3.4834834834834836,0.06766795276961624
3.4934934934934936,0.03019784185512096
3.5035035035035036,-0.006466005646326132
3.5135135135135136,-0.011038113628030921
3.5235235235235236,-0.10438212346004005
3.5335335335335336,-0.21713885943573913
3.5435435435435436,-0.2711425312789175
3.5535535535535536,-0.3802995186327253
3.5635635635635636,-0.3897743853910056
3.5735735735735736,-0.46041965763108206
3.5835835835835836,-0.4852251645707009
3.5935935935935936,-0.5961144015617332
3.6036036036036037,-0.5799835505514899
3.6136136136136137,-0.5781157527896069
3.6236236236236237,-0.7064033441904389
3.6336336336336337,-0.7243204597834711
3.6436436436436437,-0.7503958423008484
3.6536536536536537,-0.8423572051931012
3.6636636636636637,-0.8452329718028251
3.6736736736736737,-0.8865626543695145
3.6836836836836837,-0.9095547945177231
3.6936936936936937,-0.9767193160889386
3.7037037037037037,-0.9567640036025415
3.7137137137137137,-0.9492219658764637
3.7237237237237237,-0.9138449563059623
3.7337337337337337,-0.9468181781783248
3.7437437437437437,-0.8915683693205017
3.7537537537537538,-1.0380892524147913
3.7637637637637638,-0.9526468788625205
3.7737737737737738,-0.9796971794765181
3.7837837837837838,-0.8680650922868027
3.793793793793794,-1.0027954235043912
3.803803803803804,-0.9853861903806198
3.813813813813814,-0.950658695325065
3.823823823823824,-1.0005319993465183
3.833833833833834,-0.8907365065439035
3.843843843843844,-0.869098515393379
3.853853853853854,-0.7870286145886335
3.863863863863864,-0.7377249287719408
3.873873873873874,-0.6182837434702331
3.883883883883884,-0.6190347212730711
3.893893893893894,-0.6472288646993368
3.903903903903904,-0.6126868196621266
3.913913913913914,-0.4903073316654879
3.923923923923924,-0.5260159977496431
3.933933933933934,-0.31171338419126643
3.943943943943944,-0.2860015277585286
3.953953953953954,-0.30875534867928706
3.963963963963964,-0.31014813509211797
3.973973973973974,-0.09510489345682463
3.983983983983984,-0.10618883011479927
3.993993993993994,0.02416292291995603
4.004004004004004,-0.054566137550341856
4.014014014014014,0.05797015726337379
4.024024024024024,0.1506370067998476
4.034034034034034,0.21456511587074725
4.044044044044044,0.25071488003450637
4.054054054054054,0.36428229135943235
4.064064064064064,0.33836303125126793
4.074074074074074,0.4416802059493982
4.084084084084084,0.5100943373769207
4.094094094094094,0.583088517964581
4.104104104104104,0.6440302648986633
4.114114114114114,0.6008942806772947
4.124124124124124,0.6264989705439028
4.134134134134134,0.8103860294229779
4.1441441441441444,0.8034633959705703
4.1541541541541545,0.7866573292755377
4.1641641641641645,0.9356144296318147
4.1741741741741745,0.8944225983669983
4.1841841841841845,0.9746716877033602
4.1941941941941945,0.9425296016902733
4.2042042042042045,1.0619240909687495
4.2142142142142145,1.0625948887966947
4.2242242242242245,0.9744658876292066
4.2342342342342345,1.0436761929979839
4.2442442442442445,1.0316149339412384
4.2542542542542545,1.0680743455388475
4.2642642642642645,0.947740193010099
4.2742742742742745,1.0226939636333947
4.2842842842842845,1.0298090997039717
4.2942942942942945,0.8735843359259694
4.3043043043043046,0.8831895359010303
4.314314314314315,0.8174955225022005
4.324324324324325,0.8794555164273404
4.334334334334335,0.8987406710757289
4.344344344344345,0.9045069641298836
4.354354354354355,0.7963396297626727
4.364364364364365,0.8341770157765205
4.374374374374375,0.6408758193836848
4.384384384384385,0.5790392388378566
4.394394394394395,0.6131318686223485
4.404404404404405,0.5843778392123575
4.414414414414415,0.5105701905484086
4.424424424424425,0.3538376976770837
4.434434434434435,0.39595066419216557
4.444444444444445,0.27679666830042676
4.454454454454455,0.3157647479154738
4.464464464464465,0.23975574462640123
4.474474474474475,0.11270093847118078
4.484484484484485,0.07163917250146651
4.494494494494495,-0.018375463282628693
4.504504504504505,-0.03143281294677565
4.514514514514515,-0.043313906661578416
4.524524524524525,-0.2027693542129935
4.534534534534535,-0.19008581496919869
4.544544544544545,-0.3027547652976975
4.554554554554555,-0.37574688615533486
4.564564564564565,-0.39998702074716747
4.574574574574575,-0.503369312497863
4.584584584584585,-0.5344754992356312
4.594594594594595,-0.6198686807670378
4.604604604604605,-0.512705891899604
4.614614614614615,-0.6577303959373104
4.624624624624625,-0.7404233425455812
4.634634634634635,-0.7378919527982789
4.644644644644645,-0.7944009699171727
4.654654654654655,-0.8369074609402043
4.664664664664665,-0.8289592451785741
4.674674674674675,-0.852201285319541
4.684684684684685,-0.9434910591765387
4.694694694694695,-0.9690201527419925
4.704704704704705,-0.9735269792107712
4.714714714714715,-1.090620230718618
4.724724724724725,-1.0631758465667165
4.734734734734735,-0.9270600171617864
4.744744744744745,-0.9172065121540053
4.754754754754755,-1.0120055771995828
4.764764764764765,-0.9668721235540495
4.774774774774775,-0.9723462192130012
4.784784784784785,-0.8222668105516678
4.794794794794795,-0.9046738568505922
4.804804804804805,-0.9476913851035413
4.814814814814815,-0.9659931289102961
4.824824824824825,-0.9718279887111633
4.834834834834835,-0.8510966461458702
4.844844844844845,-0.8654456758669468
4.854854854854855,-0.8618263243949776
4.864864864864865,-0.7830009494648505
4.874874874874875,-0.761739879067226
4.884884884884885,-0.5774971580762414
4.894894894894895,-0.5693467464191904
4.904904904904905,-0.5629760902842688
4.914914914914915,-0.43550429333937224
4.924924924924925,-0.4505423310624964
4.934934934934935,-0.4405872601503256
4.944944944944945,-0.2629071666311946
4.954954954954955,-0.25231738110859897
4.964964964964965,-0.2702203739609696
4.974974974974975,-0.16610669803273886
4.984984984984985,-0.13798314899686437
4.994994994994995,-0.10058217746733712
5.005005005005005,0.07775106829569994
5.015015015015015,0.18967306835113062
5.025025025025025,0.086661385437599
5.035035035035035,0.24650652807917292
5.045045045045045,0.2467307548367382
5.055055055055055,0.3147071013064404
5.065065065065065,0.3679033538719667
5.075075075075075,0.4112112079608844
5.085085085085085,0.5119275816811127
5.095095095095095,0.5210299523978839
5.105105105105105,0.6269515755556502
5.115115115115115,0.6593423343574109
5.125125125125125,0.6957150765431815
5.135135135135135,0.705294122150645
5.145145145145145,0.7618750723866757
5.155155155155155,0.86539769989402
5.165165165165165,0.8863156873204491
5.175175175175175,0.8426279104583542
5.185185185185185,0.923182722151735
5.195195195195195,0.9788648616980916
5.205205205205205,0.8771823383662528
5.215215215215215,1.003378860593426
5.225225225225225,0.9547775389928849
5.235235235235235,1.0242299051364954
5.245245245245245,0.9613908173946382
5.255255255255255,0.9092107927958435
5.265265265265265,0.9140266086398546
5.275275275275275,0.9898205407898578
5.285285285285285,0.9885102975679134
5.295295295295295,0.9145585630979701
5.305305305305305,0.972158863648628
5.315315315315315,0.8338899986825669
5.325325325325325,0.8867726808895399
5.335335335335335,0.7991167701926238
5.345345345345345,0.7932671755734345
5.355355355355355,0.7911545009984533
5.365365365365365,0.7055702800707963
5.375375375375375,0.6862092899344624
5.385385385385385,0.7098082139966206
5.395395395395395,0.5820975550692652
5.405405405405405,0.6017593917408547
5.415415415415415,0.45030769123539643
5.425425425425425,0.4780974052726606
5.435435435435435,0.4667139337823401
5.445445445445445,0.21252101953585217
5.455455455455455,0.23639712160555398
5.465465465465465,0.24414174710411685
5.475475475475475,0.14333078259406912
5.485485485485485,0.10962831635521174
5.495495495495495,-0.001900401252671529
5.505505505505505,-0.030255723438167896
5.515515515515515,-0.10511638013790628
5.525525525525525,-0.10130582470455576
5.535535535535535,-0.20870479015649923
5.545545545545545,-0.26540098737020945
5.555555555555555,-0.36261399163178715
5.565565565565565,-0.42478697737142745
5.575575575575575,-0.4788377120700564
5.585585585585585,-0.4924823208341993
5.595595595595595,-0.5862237908064033
5.605605605605605,-0.6014205107223541
5.615615615615615,-0.5604383208733404
5.625625625625625,-0.6663246571228405
5.635635635635635,-0.7690474151063463
5.645645645645645,-0.7325741946334852
5.655655655655655,-0.8497928801761603
5.665665665665665,-0.9647697850448222
5.675675675675675,-0.9433301736954359
5.685685685685685,-1.0129967274414973
5.6956956956956954,-0.9599281357363824
5.7057057057057055,-0.9606003912876478
5.7157157157157155,-0.8930660097477277
5.7257257257257255,-0.9720450219452645
5.7357357357357355,-1.0069413924795472
5.7457457457457455,-0.9581724886030555
5.7557557557557555,-1.1099029019123752
5.7657657657657655,-0.9833169175448381
5.7757757757757755,-0.9483708353588117
5.7857857857857855,-1.0487571589635272
5.7957957957957955,-0.9016989925643054
5.8058058058058055,-0.9222288572450479
5.8158158158158155,-0.9364712241952114
5.8258258258258255,-0.8569997733470422
5.8358358358358355,-0.74452218796547
5.8458458458458455,-0.8149883433504399
5.8558558558558556,-0.7744366660565755
5.865865865865866,-0.7694702333050687
5.875875875875876,-0.7456968975539252
5.885885885885886,-0.6156095944419804
5.895895895895896,-0.6512537122896613
5.905905905905906,-0.5537882644006761
5.915915915915916,-0.5279624281295806
5.925925925925926,-0.42485018891314547
5.935935935935936,-0.3750609474560557
5.945945945945946,-0.2812627975291647
5.955955955955956,-0.2987189735512083
5.965965965965966,-0.2257098329471776
5.975975975975976,-0.19931300760305623
5.985985985985986,-0.110153571414874
5.995995995995996,-0.006290220737136344
6.006006006006006,0.07557732351097865
6.016016016016016,0.05435357164328466
6.026026026026026,0.20627880817037236
6.036036036036036,0.2922733015778192
6.046046046046046,0.30596831123523105
6.056056056056056,0.4388133244224873
6.066066066066066,0.36459686252879997
6.076076076076076,0.39777160223303487
6.086086086086086,0.4259672777955971
6.096096096096096,0.642568301669163
6.106106106106106,0.6511019647339176
6.116116116116116,0.6637766796368464
6.126126126126126,0.7260907167470118
6.136136136136136,0.6985382751958784
6.146146146146146,0.9168359028932817
6.156156156156156,0.8376029414144541
6.166166166166166,0.8699184951901071
6.176176176176176,0.9306255443259613
6.186186186186186,0.9447395246396972
6.196196196196196,0.9545942994855356
6.206206206206206,0.9228567864643674
6.216216216216216,1.001128656804485
6.226226226226226,1.082965504587187
6.236236236236236,1.0635339130063028
6.246246246246246,1.0793812056023586
6.256256256256256,0.9736667083745205
6.266266266266266,0.9453014784696567
6.276276276276276,0.9801127906907325
6.286286286286286,0.9769081260531725
6.296296296296296,1.0126990882390368
6.306306306306306,0.8534455954104263
6.316316316316316,0.9909161154181992
6.326326326326326,0.8792918794796559
6.336336336336336,0.8350935423959781
6.346346346346346,0.7716909628358023
6.356356356356356,0.7021602082931193
6.366366366366366,0.7855645750865154
6.376376376376376,0.7046312351270206
6.386386386386386,0.5902546534526877
6.396396396396396,0.5411969376603697
6.406406406406406,0.5379636194196156
6.416416416416417,0.5848121688520772
6.426426426426427,0.4330071581168939
6.436436436436437,0.31369158093548305
6.446446446446447,0.3178858971965366
6.456456456456457,0.2565555423963985
6.466466466466467,0.07429760079048464
6.476476476476477,0.1445503612942493
6.486486486486487,0.07325919796507707
6.496496496496497,0.05682170216689618
6.506506506506507,0.0515776053065564
6.516516516516517,-0.04726191235485479
6.526526526526527,-0.17934492109645525
6.536536536536537,-0.28288106031316335
6.546546546546547,-0.1596412001097302
6.556556556556557,-0.344962590993558
6.566566566566567,-0.4054655259588274
6.576576576576577,-0.46400057732279865
6.586586586586587,-0.5076923224234886
6.596596596596597,-0.5775700111740989
6.606606606606607,-0.6495350951872534
6.616616616616617,-0.6962398208063603
6.626626626626627,-0.7159342999378201
6.636636636636637,-0.7840429905616819
6.646646646646647,-0.8320961486387872
6.656656656656657,-0.8275649222561808
6.666666666666667,-0.8787742646554818
6.676676676676677,-0.8205400742561197
6.686686686686687,-1.0544603801048764
6.696696696696697,-0.8898630627847055
6.706706706706707,-0.9009259312690321
6.716716716716717,-1.081882446753616
6.726726726726727,-1.0064617693575104
6.736736736736737,-1.0151016462501263
6.746746746746747,-1.0701666789998174
6.756756756756757,-1.0379898005842252
6.766766766766767,-1.0499847480285691
6.776776776776777,-0.8982669012762141
6.786786786786787,-0.9266223610986298
6.796796796796797,-0.8935051012485639
6.806806806806807,-0.900891096065276
6.816816816816817,-0.9696139157338455
6.826826826826827,-0.911962921710517
6.836836836836837,-0.8303411632455305
6.846846846846847,-0.881608965551683
6.856856856856857,-0.7473007046998436
6.866866866866867,-0.754318811653518
6.876876876876877,-0.7174601027298464
6.886886886886887,-0.6168245381116176
6.896896896896897,-0.5812330734891222
6.906906906906907,-0.5701819546440248
6.916916916916917,-0.44067118107278214
6.926926926926927,-0.4972230270241206
6.936936936936937,-0.355152778648118
6.946946946946947,-0.2975479779593511
6.956956956956957,-0.28263993810022237
6.966966966966967,-0.18975906029958417
6.976976976976977,-0.20670960988722392
6.986986986986987,-0.035470750902865056
6.996996996996997,-0.02811241160661593
7.007007007007007,0.017875950996427286
7.017017017017017,0.15916792666320506
7.027027027027027,0.1337836357947098
7.037037037037037,0.16019280592426488
7.047047047047047,0.21348750459935184
7.057057057057057,0.3811705484186094
7.067067067067067,0.3450121743159325
7.077077077077077,0.5533194408931734
7.087087087087087,0.4161882415873944
7.097097097097097,0.6577550730565208
7.107107107107107,0.6338650412983443
7.117117117117117,0.6663955637473831
7.127127127127127,0.6892479691423337
7.137137137137137,0.7788800971856932
7.147147147147147,0.7964698035531623
7.157157157157157,0.8897878423486446
7.167167167167167,0.8733048701007027
7.177177177177177,0.9046484640154061
7.187187187187187,0.9049449885836195
7.197197197197197,0.9426200914078091
7.207207207207207,0.9794604352607542
7.217217217217217,0.89335253778103
7.227227227227227,0.9223714446184981
7.237237237237237,1.0339496448581698
7.247247247247247,1.0083936988646975
7.257257257257257,0.9897613929411935
7.267267267267267,0.9950420541432091
7.277277277277277,1.0027280457357
7.287287287287287,0.9456930706876926
7.297297297297297,0.9172514984691368
7.307307307307307,0.9456635683086962
7.317317317317317,0.8629563854342834
7.327327327327327,0.9046854207945009
7.337337337337337,0.7680445529815021
7.347347347347347,0.8701586362321094
7.357357357357357,0.8046203417665707
7.367367367367367,0.7529931834176405
7.377377377377377,0.7456004272464978
7.387387387387387,0.7332596452767781
7.397397397397397,0.6516541374140289
7.407407407407407,0.45746526650422575
7.4174174174174174,0.4319304703476029
7.4274274274274275,0.40910768404983655
7.4374374374374375,0.38435112511371333
7.4474474474474475,0.35011274650782737
7.4574574574574575,0.22784367865893618
7.4674674674674675,0.2123257902506144
7.4774774774774775,0.10327218530725533
7.4874874874874875,0.047961581416077356
7.4974974974974975,-0.05461001578536904
7.5075075075075075,-0.09331523165784679
7.5175175175175175,-0.1774279418233167
7.5275275275275275,-0.2208931454130327
7.5375375375375375,-0.18099260613386153
7.5475475475475475,-0.3417957997608771
7.5575575575575575,-0.22219401588446452
7.5675675675675675,-0.3872353531999474
7.5775775775775776,-0.4591187301479134
7.587587587587588,-0.5658856072248631
7.597597597597598,-0.540491358799438
7.607607607607608,-0.6545520681636954
7.617617617617618,-0.6674584361545964
7.627627627627628,-0.5906798979550953
7.637637637637638,-0.7657703206478996
7.647647647647648,-0.7427776563397461
7.657657657657658,-0.8715096302220706
7.667667667667668,-0.8709024161268456
7.677677677677678,-0.8099781243380892
7.687687687687688,-0.9556785324666961
7.697697697697698,-0.8558645618350046
7.707707707707708,-0.9295133719219651
7.717717717717718,-1.0076226381758293
7.727727727727728,-0.9586038665384224
7.737737737737738,-0.9484056972973535
7.747747747747748,-0.9688093736558892
7.757757757757758,-1.0773235102217922
7.767767767767768,-1.030131786796668
7.777777777777778,-0.9971836847897834
7.787787787787788,-0.975667880907237
7.797797797797798,-0.9242075527207528
7.807807807807808,-0.9258736066204891
7.817817817817818,-0.9773469215275428
7.827827827827828,-0.8637900201743219
7.837837837837838,-0.8209998504691224
7.847847847847848,-0.7889015147963536
7.857857857857858,-0.7249835493057621
7.867867867867868,-0.696377423904898
7.877877877877878,-0.6712468021793023
7.887887887887888,-0.6511011672103303
7.897897897897898,-0.6814671330667272
7.907907907907908,-0.5253979645370014
7.917917917917918,-0.4827916775413188
7.927927927927928,-0.4239440685971383
7.937937937937938,-0.4439772269146177
7.947947947947948,-0.3753061707045587
7.957957957957958,-0.20843886774544784
7.967967967967968,-0.2018849429176382
7.977977977977978,-0.10385230310402618
7.987987987987988,-0.0739861457758783
7.997997997997998,-0.011090810863956578
8.008008008008009,0.09720876066216738
8.018018018018019,0.08716663501820952
8.028028028028029,0.1800024820989205
8.038038038038039,0.21361744585642703
8.048048048048049,0.27560502529555986
8.058058058058059,0.3412940822408002
8.068068068068069,0.42587146968709677
8.078078078078079,0.4471992779998453
8.088088088088089,0.5884333589100015
8.098098098098099,0.5333453943893975
8.108108108108109,0.618876415087574
8.118118118118119,0.653893420448973
8.128128128128129,0.7932161131422721
8.138138138138139,0.7728315731971092
8.148148148148149,0.8537154197284766
8.158158158158159,0.7637925800533772
8.168168168168169,0.8840564134585918
8.178178178178179,0.9443755903044898
8.188188188188189,0.9296398183854506
8.198198198198199,1.0007712654736978
8.208208208208209,0.9398576258103374
8.218218218218219,1.050595326731456
8.228228228228229,1.105602904750394
8.238238238238239,0.97912861135085
8.248248248248249,0.9776643021302552
8.258258258258259,1.0713233349323414
8.268268268268269,1.0723982780043462
8.278278278278279,0.9581138050757043
8.288288288288289,0.950192411415583
8.298298298298299,0.9402169032857239
8.308308308308309,0.8664142380591312
8.318318318318319,0.8633427804896783
8.328328328328329,0.8311112737722015
8.338338338338339,0.8114862429354793
8.348348348348349,0.8133388971169243
8.358358358358359,0.7887577361091133
8.368368368368369,0.8134730921248079
8.378378378378379,0.6420211669406043
8.388388388388389,0.6944095558625224
8.398398398398399,0.5851971784226186
8.408408408408409,0.5417701791489562
8.418418418418419,0.5241789025247521
8.428428428428429,0.37855698007627847
8.438438438438439,0.396349751611973
8.448448448448449,0.32659632530295807
8.458458458458459,0.2826821326292573
8.468468468468469,0.21128337366309186
8.478478478478479,0.2575769870021274
8.488488488488489,0.04037891270802266
8.498498498498499,-0.017115775524196762
8.508508508508509,-0.08459210031429526
8.518518518518519,-0.14386677008324664
8.528528528528529,-0.21016102752330254
8.538538538538539,-0.18033455694235614
8.548548548548549,-0.2293056652122594
8.558558558558559,-0.3882260443320084
8.568568568568569,-0.45924199086168094
8.578578578578579,-0.4503374447711227
8.588588588588589,-0.5559293409601032
8.598598598598599,-0.5489923585408306
8.608608608608609,-0.6205174539999905
8.618618618618619,-0.7539815415645295
8.62862862862863,-0.6456679239950055
8.63863863863864,-0.6752389138031158
8.64864864864865,-0.83463656489116
8.65865865865866,-0.8591671784553412
8.66866866866867,-0.8579529284832416
8.67867867867868,-0.8845382060465925
8.68868868868869,-0.8937846917716442
8.6986986986987,-0.8479879066214775
8.70870870870871,-0.9753809389327448
8.71871871871872,-1.0206617794469626
8.72872872872873,-1.0600479080697456
8.73873873873874,-1.0340442985915956
8.74874874874875,-1.0016254445114368
8.75875875875876,-0.9087581786946332
8.76876876876877,-1.0189351540921763
8.77877877877878,-0.9725067285976646
8.78878878878879,-0.9712688353234347
8.7987987987988,-0.893942008705026
8.80880880880881,-0.8061590161860257
8.81881881881882,-0.9345054985255627
8.82882882882883,-0.9042999679423392
8.83883883883884,-0.7960066560593491
8.84884884884885,-0.7791526107424154
8.85885885885886,-0.6827283625927997
8.86886886886887,-0.7046189160104313
8.87887887887888,-0.7076296935176137
8.88888888888889,-0.6132548681519249
8.8988988988989,-0.5379330828084727
8.90890890890891,-0.5005783624883221
8.91891891891892,-0.46233124225826633
8.92892892892893,-0.37852511853383897
8.93893893893894,-0.31585022040173744
8.94894894894895,-0.2461829890236244
8.95895895895896,-0.22258458202082954
8.96896896896897,-0.20209665525273754
8.97897897897898,-0.12435960451395758
8.98898898898899,-0.00880359626936985
8.998998998999,-0.04713621686542861
9.00900900900901,0.07500871462743533
9.01901901901902,0.09954886811980732
9.02902902902903,0.182822377019391
9.03903903903904,0.30675977850895514
9.04904904904905,0.3128839018756219
9.05905905905906,0.36494304118947163
9.06906906906907,0.3524867062202194
9.07907907907908,0.5139877277477868
9.08908908908909,0.5632598091863759
9.0990990990991,0.6913591333715456
9.10910910910911,0.6177120641791738
9.11911911911912,0.6914595077384496
9.12912912912913,0.7376811829459332
9.13913913913914,0.8459268588437734
9.14914914914915,0.8010983403383206
9.15915915915916,0.8554363735885684
9.16916916916917,0.9041746953985551
9.17917917917918,0.9119495838268502
9.18918918918919,0.905567346568983
9.1991991991992,0.959194139999728
9.20920920920921,1.0210171358902795
9.21921921921922,0.9300304157830063
9.22922922922923,0.9981445773047288
9.23923923923924,0.9627091484493028
9.24924924924925,1.0597412059219562
9.25925925925926,0.9221488130320795
9.26926926926927,0.964733594519941
9.27927927927928,1.00198631154893
9.28928928928929,1.0479602331194051
9.2992992992993,0.9491202698308013
9.30930930930931,0.9036053131251943
9.31931931931932,1.00069761624892
9.32932932932933,0.8059282835619559
9.33933933933934,0.7366045924990575
9.34934934934935,0.8334139089655314
9.35935935935936,0.7479700821710881
9.36936936936937,0.6806136852451456
9.37937937937938,0.7228023109940781
9.38938938938939,0.6525654623615882
9.3993993993994,0.5626301034691207
9.40940940940941,0.47494100242667325
9.41941941941942,0.5285700031314932
9.42942942942943,0.46153041296026037
9.43943943943944,0.3664382406186027
9.44944944944945,0.4046368940338727
9.45945945945946,0.1984738230688204
9.46946946946947,0.11437838648682645
9.47947947947948,0.09398189178780825
9.48948948948949,0.06371219280884337
9.4994994994995,0.015311704673871707
9.50950950950951,-0.07177626777602263
9.51951951951952,-0.10473475455274267
9.52952952952953,-0.24705377801301193
9.53953953953954,-0.17369835555018864
9.54954954954955,-0.31043157852641035
9.55955955955956,-0.30968532024580836
9.56956956956957,-0.4061943887376487
9.57957957957958,-0.4565995013311174
9.58958958958959,-0.5051593963905125
9.5995995995996,-0.5633626495409715
9.60960960960961,-0.603395947851008
9.61961961961962,-0.6163452906565664
9.62962962962963,-0.7175475830879723
9.63963963963964,-0.733617818694891
9.64964964964965,-0.8122079187881662
9.65965965965966,-0.7711743116137492
9.66966966966967,-0.9091245157807754
9.67967967967968,-0.813921261816476
9.68968968968969,-0.9310648704865795
9.6996996996997,-1.0220105124060128
9.70970970970971,-0.9617227321565794
9.71971971971972,-1.0160083221712501
9.72972972972973,-0.9498682578094406
9.73973973973974,-1.0305539139933626
9.74974974974975,-1.0223079354893363
9.75975975975976,-1.0925974085854229
9.76976976976977,-1.0149102836172679
9.77977977977978,-1.1037395532540757
9.78978978978979,-1.0481059244104367
9.7997997997998,-0.9134237418759615
9.80980980980981,-0.8909257228960634
9.81981981981982,-0.8840356214933504
9.82982982982983,-0.9251700823896145
9.83983983983984,-0.8472522767629189
9.84984984984985,-0.8097512902952724
9.85985985985986,-0.8289924471583539
9.86986986986987,-0.6543581760338301
9.87987987987988,-0.6412289759549986
9.88988988988989,-0.6490051194445987
9.8998998998999,-0.586949673251079
9.90990990990991,-0.525885502840008
9.91991991991992,-0.584281277223262
9.92992992992993,-0.4385364814984675
9.93993993993994,-0.40257460721014515
9.94994994994995,-0.35939706188361625
9.95995995995996,-0.26298856911119384
9.96996996996997,-0.09768232703336151
9.97997997997998,-0.09341588711694906
9.98998998998999,-0.09141223953362121
10.0,0.02862913906780548
